# 2theta_deg counts; perturbed synthetic powder XRD
10.00000 193
10.02000 242
10.04000 346
10.06000 523
10.08000 751
10.10000 1121
10.12000 1542
10.14000 2019
10.16000 2696
10.18000 3062
10.20000 3112
10.22000 3122
10.24000 2768
10.26000 2197
10.28000 1741
10.30000 1278
10.32000 872
10.34000 595
10.36000 431
10.38000 331
10.40000 286
10.42000 224
10.44000 148
10.46000 185
10.48000 179
10.50000 178
10.52000 182
10.54000 152
10.56000 167
10.58000 155
10.60000 153
10.62000 147
10.64000 153
10.66000 160
10.68000 162
10.70000 163
10.72000 179
10.74000 184
10.76000 142
10.78000 151
10.80000 135
10.82000 171
10.84000 151
10.86000 155
10.88000 150
10.90000 145
10.92000 143
10.94000 152
10.96000 138
10.98000 171
11.00000 196
11.02000 151
11.04000 163
11.06000 143
11.08000 175
11.10000 165
11.12000 147
11.14000 153
11.16000 159
11.18000 151
11.20000 171
11.22000 182
11.24000 175
11.26000 154
11.28000 186
11.30000 180
11.32000 165
11.34000 166
11.36000 189
11.38000 198
11.40000 194
11.42000 186
11.44000 186
11.46000 188
11.48000 181
11.50000 193
11.52000 182
11.54000 183
11.56000 195
11.58000 200
11.60000 186
11.62000 176
11.64000 216
11.66000 205
11.68000 169
11.70000 191
11.72000 206
11.74000 191
11.76000 207
11.78000 200
11.80000 217
11.82000 219
11.84000 208
11.86000 224
11.88000 216
11.90000 206
11.92000 203
11.94000 212
11.96000 238
11.98000 197
12.00000 226
12.02000 213
12.04000 211
12.06000 223
12.08000 246
12.10000 211
12.12000 243
12.14000 221
12.16000 211
12.18000 227
12.20000 242
12.22000 245
12.24000 234
12.26000 223
12.28000 232
12.30000 251
12.32000 235
12.34000 240
12.36000 245
12.38000 265
12.40000 229
12.42000 237
12.44000 219
12.46000 229
12.48000 248
12.50000 265
12.52000 266
12.54000 236
12.56000 248
12.58000 250
12.60000 239
12.62000 267
12.64000 268
12.66000 271
12.68000 267
12.70000 243
12.72000 260
12.74000 274
12.76000 246
12.78000 227
12.80000 222
12.82000 253
12.84000 284
12.86000 286
12.88000 278
12.90000 274
12.92000 280
12.94000 259
12.96000 280
12.98000 270
13.00000 285
13.02000 277
13.04000 280
13.06000 287
13.08000 292
13.10000 282
13.12000 265
13.14000 312
13.16000 320
13.18000 264
13.20000 294
13.22000 271
13.24000 280
13.26000 305
13.28000 289
13.30000 302
13.32000 284
13.34000 325
13.36000 304
13.38000 308
13.40000 330
13.42000 305
13.44000 290
13.46000 325
13.48000 316
13.50000 310
13.52000 322
13.54000 296
13.56000 289
13.58000 311
13.60000 319
13.62000 340
13.64000 336
13.66000 332
13.68000 298
13.70000 300
13.72000 307
13.74000 328
13.76000 314
13.78000 324
13.80000 346
13.82000 335
13.84000 364
13.86000 342
13.88000 354
13.90000 339
13.92000 352
13.94000 334
13.96000 361
13.98000 344
14.00000 327
14.02000 338
14.04000 310
14.06000 339
14.08000 339
14.10000 346
14.12000 337
14.14000 326
14.16000 348
14.18000 344
14.20000 348
14.22000 395
14.24000 322
14.26000 398
14.28000 394
14.30000 356
14.32000 332
14.34000 382
14.36000 331
14.38000 380
14.40000 360
14.42000 369
14.44000 396
14.46000 383
14.48000 380
14.50000 349
14.52000 349
14.54000 377
14.56000 378
14.58000 382
14.60000 371
14.62000 360
14.64000 369
14.66000 374
14.68000 390
14.70000 393
14.72000 384
14.74000 366
14.76000 395
14.78000 375
14.80000 412
14.82000 401
14.84000 419
14.86000 377
14.88000 375
14.90000 413
14.92000 418
14.94000 397
14.96000 398
14.98000 431
15.00000 455
15.02000 403
15.04000 396
15.06000 421
15.08000 415
15.10000 386
15.12000 418
15.14000 428
15.16000 396
15.18000 430
15.20000 407
15.22000 387
15.24000 419
15.26000 409
15.28000 414
15.30000 413
15.32000 378
15.34000 401
15.36000 420
15.38000 425
15.40000 427
15.42000 449
15.44000 436
15.46000 411
15.48000 415
15.50000 469
15.52000 451
15.54000 428
15.56000 423
15.58000 438
15.60000 404
15.62000 403
15.64000 451
15.66000 407
15.68000 487
15.70000 481
15.72000 428
15.74000 467
15.76000 427
15.78000 442
15.80000 425
15.82000 486
15.84000 489
15.86000 468
15.88000 472
15.90000 467
15.92000 462
15.94000 457
15.96000 464
15.98000 496
16.00000 500
16.02000 485
16.04000 468
16.06000 456
16.08000 465
16.10000 505
16.12000 479
16.14000 435
16.16000 492
16.18000 489
16.20000 466
16.22000 484
16.24000 458
16.26000 497
16.28000 485
16.30000 531
16.32000 472
16.34000 517
16.36000 513
16.38000 502
16.40000 473
16.42000 539
16.44000 494
16.46000 509
16.48000 479
16.50000 509
16.52000 488
16.54000 467
16.56000 504
16.58000 510
16.60000 544
16.62000 545
16.64000 508
16.66000 522
16.68000 496
16.70000 518
16.72000 570
16.74000 550
16.76000 537
16.78000 505
16.80000 557
16.82000 548
16.84000 534
16.86000 540
16.88000 560
16.90000 532
16.92000 523
16.94000 534
16.96000 535
16.98000 555
17.00000 550
17.02000 564
17.04000 561
17.06000 570
17.08000 571
17.10000 564
17.12000 568
17.14000 572
17.16000 615
17.18000 608
17.20000 586
17.22000 581
17.24000 642
17.26000 663
17.28000 669
17.30000 659
17.32000 721
17.34000 664
17.36000 669
17.38000 731
17.40000 780
17.42000 821
17.44000 818
17.46000 866
17.48000 867
17.50000 1104
17.52000 1232
17.54000 1608
17.56000 2075
17.58000 2858
17.60000 4227
17.62000 6072
17.64000 7967
17.66000 10019
17.68000 11682
17.70000 12812
17.72000 12973
17.74000 12100
17.76000 10379
17.78000 8507
17.80000 6462
17.82000 4805
17.84000 3372
17.86000 2447
17.88000 1714
17.90000 1424
17.92000 1099
17.94000 994
17.96000 918
17.98000 834
18.00000 852
18.02000 800
18.04000 733
18.06000 680
18.08000 774
18.10000 703
18.12000 697
18.14000 751
18.16000 661
18.18000 693
18.20000 681
18.22000 723
18.24000 669
18.26000 650
18.28000 650
18.30000 681
18.32000 668
18.34000 696
18.36000 678
18.38000 668
18.40000 637
18.42000 646
18.44000 639
18.46000 613
18.48000 613
18.50000 640
18.52000 663
18.54000 671
18.56000 660
18.58000 642
18.60000 658
18.62000 648
18.64000 660
18.66000 679
18.68000 647
18.70000 679
18.72000 657
18.74000 587
18.76000 668
18.78000 662
18.80000 660
18.82000 628
18.84000 621
18.86000 623
18.88000 674
18.90000 693
18.92000 653
18.94000 614
18.96000 643
18.98000 635
19.00000 660
19.02000 685
19.04000 679
19.06000 646
19.08000 670
19.10000 614
19.12000 649
19.14000 618
19.16000 684
19.18000 648
19.20000 646
19.22000 728
19.24000 658
19.26000 674
19.28000 668
19.30000 623
19.32000 657
19.34000 657
19.36000 666
19.38000 647
19.40000 681
19.42000 703
19.44000 673
19.46000 677
19.48000 679
19.50000 682
19.52000 721
19.54000 632
19.56000 703
19.58000 680
19.60000 666
19.62000 661
19.64000 679
19.66000 660
19.68000 719
19.70000 681
19.72000 696
19.74000 628
19.76000 709
19.78000 723
19.80000 705
19.82000 746
19.84000 738
19.86000 757
19.88000 714
19.90000 748
19.92000 684
19.94000 722
19.96000 750
19.98000 804
20.00000 700
20.02000 730
20.04000 752
20.06000 764
20.08000 786
20.10000 754
20.12000 806
20.14000 831
20.16000 779
20.18000 786
20.20000 837
20.22000 866
20.24000 892
20.26000 903
20.28000 929
20.30000 1111
20.32000 1187
20.34000 1418
20.36000 1892
20.38000 2462
20.40000 3212
20.42000 4466
20.44000 5744
20.46000 6865
20.48000 8037
20.50000 8324
20.52000 8178
20.54000 7619
20.56000 6424
20.58000 5369
20.60000 4088
20.62000 3200
20.64000 2428
20.66000 1817
20.68000 1456
20.70000 1196
20.72000 1086
20.74000 992
20.76000 984
20.78000 903
20.80000 922
20.82000 860
20.84000 887
20.86000 888
20.88000 824
20.90000 887
20.92000 849
20.94000 872
20.96000 864
20.98000 806
21.00000 807
21.02000 798
21.04000 848
21.06000 855
21.08000 843
21.10000 827
21.12000 857
21.14000 843
21.16000 847
21.18000 878
21.20000 866
21.22000 835
21.24000 871
21.26000 887
21.28000 905
21.30000 985
21.32000 989
21.34000 1136
21.36000 1220
21.38000 1428
21.40000 1849
21.42000 2336
21.44000 2845
21.46000 3481
21.48000 4308
21.50000 4781
21.52000 5098
21.54000 4840
21.56000 4558
21.58000 4138
21.60000 3485
21.62000 2706
21.64000 2252
21.66000 1834
21.68000 1468
21.70000 1274
21.72000 1147
21.74000 1029
21.76000 964
21.78000 940
21.80000 926
21.82000 945
21.84000 953
21.86000 967
21.88000 1043
21.90000 1150
21.92000 1205
21.94000 1445
21.96000 1633
21.98000 1885
22.00000 2138
22.02000 2340
22.04000 2365
22.06000 2442
22.08000 2170
22.10000 2033
22.12000 1826
22.14000 1568
22.16000 1336
22.18000 1231
22.20000 1115
22.22000 993
22.24000 973
22.26000 955
22.28000 896
22.30000 900
22.32000 857
22.34000 838
22.36000 889
22.38000 937
22.40000 877
22.42000 924
22.44000 885
22.46000 788
22.48000 843
22.50000 850
22.52000 870
22.54000 888
22.56000 847
22.58000 834
22.60000 888
22.62000 899
22.64000 828
22.66000 864
22.68000 895
22.70000 866
22.72000 916
22.74000 930
22.76000 872
22.78000 885
22.80000 937
22.82000 927
22.84000 939
22.86000 917
22.88000 998
22.90000 902
22.92000 904
22.94000 879
22.96000 953
22.98000 927
23.00000 899
23.02000 1050
23.04000 923
23.06000 990
23.08000 989
23.10000 951
23.12000 970
23.14000 984
23.16000 1064
23.18000 1011
23.20000 1063
23.22000 1031
23.24000 1139
23.26000 1152
23.28000 1093
23.30000 1170
23.32000 1290
23.34000 1355
23.36000 1470
23.38000 1816
23.40000 2171
23.42000 2865
23.44000 3709
23.46000 5223
23.48000 7110
23.50000 8931
23.52000 10824
23.54000 12580
23.56000 13237
23.58000 13027
23.60000 12320
23.62000 10890
23.64000 9069
23.66000 7211
23.68000 5660
23.70000 4412
23.72000 3715
23.74000 3525
23.76000 3819
23.78000 4589
23.80000 5230
23.82000 6561
23.84000 7308
23.86000 8018
23.88000 8200
23.90000 8076
23.92000 7420
23.94000 6371
23.96000 5271
23.98000 4338
24.00000 3316
24.02000 2511
24.04000 2006
24.06000 1693
24.08000 1433
24.10000 1360
24.12000 1235
24.14000 1175
24.16000 1141
24.18000 1100
24.20000 1092
24.22000 1094
24.24000 1072
24.26000 1091
24.28000 1030
24.30000 997
24.32000 1041
24.34000 993
24.36000 1023
24.38000 986
24.40000 1025
24.42000 991
24.44000 987
24.46000 1011
24.48000 987
24.50000 953
24.52000 1000
24.54000 950
24.56000 995
24.58000 934
24.60000 1010
24.62000 1035
24.64000 907
24.66000 987
24.68000 973
24.70000 977
24.72000 940
24.74000 984
24.76000 950
24.78000 965
24.80000 992
24.82000 962
24.84000 952
24.86000 972
24.88000 1062
24.90000 959
24.92000 1006
24.94000 966
24.96000 997
24.98000 992
25.00000 942
25.02000 987
25.04000 952
25.06000 1017
25.08000 996
25.10000 993
25.12000 1007
25.14000 990
25.16000 978
25.18000 1006
25.20000 1048
25.22000 1060
25.24000 950
25.26000 996
25.28000 968
25.30000 1058
25.32000 952
25.34000 1016
25.36000 1031
25.38000 1022
25.40000 991
25.42000 1006
25.44000 1030
25.46000 1004
25.48000 1008
25.50000 1056
25.52000 1011
25.54000 1037
25.56000 992
25.58000 1057
25.60000 1002
25.62000 1034
25.64000 1030
25.66000 1045
25.68000 1007
25.70000 1001
25.72000 1056
25.74000 1060
25.76000 1076
25.78000 1024
25.80000 1047
25.82000 962
25.84000 1069
25.86000 1062
25.88000 1078
25.90000 1065
25.92000 1047
25.94000 1091
25.96000 1077
25.98000 1094
26.00000 1065
26.02000 1092
26.04000 1112
26.06000 1099
26.08000 1165
26.10000 1153
26.12000 1143
26.14000 1156
26.16000 1196
26.18000 1298
26.20000 1395
26.22000 1311
26.24000 1453
26.26000 1478
26.28000 1747
26.30000 2089
26.32000 2653
26.34000 3535
26.36000 4653
26.38000 5906
26.40000 7575
26.42000 8908
26.44000 10111
26.46000 10587
26.48000 10762
26.50000 10050
26.52000 8787
26.54000 7378
26.56000 5930
26.58000 4760
26.60000 3605
26.62000 2738
26.64000 2162
26.66000 1839
26.68000 1641
26.70000 1470
26.72000 1451
26.74000 1341
26.76000 1363
26.78000 1238
26.80000 1267
26.82000 1205
26.84000 1143
26.86000 1201
26.88000 1210
26.90000 1149
26.92000 1172
26.94000 1206
26.96000 1104
26.98000 1222
27.00000 1209
27.02000 1151
27.04000 1163
27.06000 1211
27.08000 1187
27.10000 1153
27.12000 1136
27.14000 1185
27.16000 1158
27.18000 1159
27.20000 1184
27.22000 1141
27.24000 1095
27.26000 1187
27.28000 1160
27.30000 1164
27.32000 1236
27.34000 1192
27.36000 1168
27.38000 1227
27.40000 1235
27.42000 1144
27.44000 1231
27.46000 1208
27.48000 1327
27.50000 1252
27.52000 1312
27.54000 1295
27.56000 1297
27.58000 1258
27.60000 1253
27.62000 1280
27.64000 1301
27.66000 1350
27.68000 1310
27.70000 1456
27.72000 1400
27.74000 1448
27.76000 1493
27.78000 1468
27.80000 1506
27.82000 1593
27.84000 1603
27.86000 1673
27.88000 1728
27.90000 1728
27.92000 1896
27.94000 1933
27.96000 2073
27.98000 2303
28.00000 2568
28.02000 3040
28.04000 3594
28.06000 4752
28.08000 6573
28.10000 9179
28.12000 12985
28.14000 18618
28.16000 25355
28.18000 32168
28.20000 38558
28.22000 43056
28.24000 45314
28.26000 43465
28.28000 40160
28.30000 34407
28.32000 27985
28.34000 22272
28.36000 16669
28.38000 12018
28.40000 8613
28.42000 6103
28.44000 4633
28.46000 3594
28.48000 2975
28.50000 2503
28.52000 2328
28.54000 2118
28.56000 2020
28.58000 1924
28.60000 1811
28.62000 1601
28.64000 1614
28.66000 1618
28.68000 1601
28.70000 1494
28.72000 1492
28.74000 1469
28.76000 1535
28.78000 1462
28.80000 1442
28.82000 1410
28.84000 1399
28.86000 1378
28.88000 1362
28.90000 1385
28.92000 1294
28.94000 1305
28.96000 1310
28.98000 1311
29.00000 1288
29.02000 1298
29.04000 1313
29.06000 1307
29.08000 1262
29.10000 1228
29.12000 1264
29.14000 1253
29.16000 1263
29.18000 1194
29.20000 1293
29.22000 1260
29.24000 1216
29.26000 1225
29.28000 1288
29.30000 1250
29.32000 1216
29.34000 1241
29.36000 1178
29.38000 1304
29.40000 1239
29.42000 1265
29.44000 1289
29.46000 1261
29.48000 1258
29.50000 1242
29.52000 1318
29.54000 1297
29.56000 1253
29.58000 1232
29.60000 1274
29.62000 1255
29.64000 1290
29.66000 1245
29.68000 1232
29.70000 1328
29.72000 1306
29.74000 1352
29.76000 1406
29.78000 1520
29.80000 1687
29.82000 1860
29.84000 2068
29.86000 2209
29.88000 2194
29.90000 2382
29.92000 2338
29.94000 2303
29.96000 2200
29.98000 1946
30.00000 1809
30.02000 1678
30.04000 1644
30.06000 1530
30.08000 1497
30.10000 1345
30.12000 1382
30.14000 1400
30.16000 1287
30.18000 1362
30.20000 1259
30.22000 1386
30.24000 1338
30.26000 1325
30.28000 1321
30.30000 1321
30.32000 1301
30.34000 1345
30.36000 1371
30.38000 1316
30.40000 1378
30.42000 1336
30.44000 1426
30.46000 1365
30.48000 1306
30.50000 1419
30.52000 1441
30.54000 1446
30.56000 1465
30.58000 1512
30.60000 1440
30.62000 1530
30.64000 1599
30.66000 1658
30.68000 1705
30.70000 1813
30.72000 1763
30.74000 1927
30.76000 2062
30.78000 2373
30.80000 2852
30.82000 3522
30.84000 4701
30.86000 6465
30.88000 8809
30.90000 11847
30.92000 14684
30.94000 18031
30.96000 20531
30.98000 22125
31.00000 22434
31.02000 21594
31.04000 19607
31.06000 17013
31.08000 14344
31.10000 11540
31.12000 8788
31.14000 6965
31.16000 5178
31.18000 3925
31.20000 3055
31.22000 2561
31.24000 2212
31.26000 1995
31.28000 1896
31.30000 1848
31.32000 1721
31.34000 1676
31.36000 1588
31.38000 1666
31.40000 1593
31.42000 1553
31.44000 1552
31.46000 1479
31.48000 1507
31.50000 1468
31.52000 1446
31.54000 1459
31.56000 1320
31.58000 1446
31.60000 1362
31.62000 1372
31.64000 1485
31.66000 1400
31.68000 1385
31.70000 1369
31.72000 1391
31.74000 1389
31.76000 1365
31.78000 1415
31.80000 1360
31.82000 1404
31.84000 1361
31.86000 1404
31.88000 1385
31.90000 1328
31.92000 1386
31.94000 1387
31.96000 1368
31.98000 1422
32.00000 1371
32.02000 1325
32.04000 1425
32.06000 1379
32.08000 1327
32.10000 1391
32.12000 1402
32.14000 1384
32.16000 1315
32.18000 1381
32.20000 1388
32.22000 1471
32.24000 1379
32.26000 1380
32.28000 1341
32.30000 1352
32.32000 1378
32.34000 1368
32.36000 1389
32.38000 1327
32.40000 1445
32.42000 1441
32.44000 1384
32.46000 1413
32.48000 1384
32.50000 1396
32.52000 1443
32.54000 1434
32.56000 1415
32.58000 1415
32.60000 1430
32.62000 1369
32.64000 1400
32.66000 1404
32.68000 1448
32.70000 1436
32.72000 1428
32.74000 1398
32.76000 1503
32.78000 1460
32.80000 1454
32.82000 1423
32.84000 1484
32.86000 1518
32.88000 1411
32.90000 1435
32.92000 1495
32.94000 1488
32.96000 1485
32.98000 1505
33.00000 1524
33.02000 1564
33.04000 1502
33.06000 1548
33.08000 1545
33.10000 1545
33.12000 1552
33.14000 1652
33.16000 1602
33.18000 1620
33.20000 1647
33.22000 1623
33.24000 1690
33.26000 1698
33.28000 1718
33.30000 1743
33.32000 1774
33.34000 1873
33.36000 1874
33.38000 1901
33.40000 1976
33.42000 2038
33.44000 2087
33.46000 2207
33.48000 2384
33.50000 2548
33.52000 2942
33.54000 3502
33.56000 4638
33.58000 6030
33.60000 8413
33.62000 11097
33.64000 14172
33.66000 17394
33.68000 19953
33.70000 21809
33.72000 21794
33.74000 21390
33.76000 19754
33.78000 17199
33.80000 15162
33.82000 12292
33.84000 9721
33.86000 7662
33.88000 5998
33.90000 5023
33.92000 4144
33.94000 3704
33.96000 3494
33.98000 3282
34.00000 3179
34.02000 3294
34.04000 3483
34.06000 3673
34.08000 3831
34.10000 4139
34.12000 4670
34.14000 5337
34.16000 6429
34.18000 8195
34.20000 11075
34.22000 15644
34.24000 22250
34.26000 32172
34.28000 43987
34.30000 57363
34.32000 68886
34.34000 78662
34.36000 84154
34.38000 84016
34.40000 79003
34.42000 71690
34.44000 62096
34.46000 51609
34.48000 40792
34.50000 31095
34.52000 23104
34.54000 16991
34.56000 12810
34.58000 10219
34.60000 8998
34.62000 9032
34.64000 10028
34.66000 11286
34.68000 13347
34.70000 14754
34.72000 15746
34.74000 16149
34.76000 15686
34.78000 14496
34.80000 13426
34.82000 11467
34.84000 9929
34.86000 8224
34.88000 6495
34.90000 5262
34.92000 4166
34.94000 3529
34.96000 2940
34.98000 2752
35.00000 2553
35.02000 2460
35.04000 2296
35.06000 2299
35.08000 2234
35.10000 2216
35.12000 2168
35.14000 2086
35.16000 2111
35.18000 2096
35.20000 2086
35.22000 2074
35.24000 1987
35.26000 2058
35.28000 2076
35.30000 2034
35.32000 2063
35.34000 2008
35.36000 2133
35.38000 2084
35.40000 2177
35.42000 2142
35.44000 2211
35.46000 2245
35.48000 2345
35.50000 2385
35.52000 2336
35.54000 2419
35.56000 2573
35.58000 2622
35.60000 2835
35.62000 2959
35.64000 3304
35.66000 3490
35.68000 3908
35.70000 4634
35.72000 5568
35.74000 6968
35.76000 8998
35.78000 12068
35.80000 16557
35.82000 22244
35.84000 29703
35.86000 38422
35.88000 47966
35.90000 56382
35.92000 63376
35.94000 67263
35.96000 67269
35.98000 64826
36.00000 58932
36.02000 51737
36.04000 43862
36.06000 35885
36.08000 28315
36.10000 21314
36.12000 15579
36.14000 11378
36.16000 8421
36.18000 6399
36.20000 4899
36.22000 4148
36.24000 3640
36.26000 3289
36.28000 3092
36.30000 2811
36.32000 2731
36.34000 2650
36.36000 2344
36.38000 2342
36.40000 2287
36.42000 2186
36.44000 2121
36.46000 2100
36.48000 2040
36.50000 2058
36.52000 1933
36.54000 1994
36.56000 1908
36.58000 1901
36.60000 1796
36.62000 1792
36.64000 1807
36.66000 1788
36.68000 1815
36.70000 1722
36.72000 1755
36.74000 1763
36.76000 1733
36.78000 1734
36.80000 1739
36.82000 1684
36.84000 1731
36.86000 1717
36.88000 1677
36.90000 1669
36.92000 1764
36.94000 1620
36.96000 1609
36.98000 1635
37.00000 1661
37.02000 1567
37.04000 1580
37.06000 1619
37.08000 1648
37.10000 1645
37.12000 1671
37.14000 1653
37.16000 1613
37.18000 1634
37.20000 1628
37.22000 1675
37.24000 1658
37.26000 1663
37.28000 1643
37.30000 1609
37.32000 1609
37.34000 1631
37.36000 1633
37.38000 1642
37.40000 1637
37.42000 1626
37.44000 1612
37.46000 1711
37.48000 1597
37.50000 1662
37.52000 1626
37.54000 1705
37.56000 1656
37.58000 1671
37.60000 1692
37.62000 1784
37.64000 1755
37.66000 1715
37.68000 1797
37.70000 1719
37.72000 1844
37.74000 1853
37.76000 1924
37.78000 2048
37.80000 2058
37.82000 2151
37.84000 2435
37.86000 2744
37.88000 3370
37.90000 4356
37.92000 5605
37.94000 7323
37.96000 9059
37.98000 11122
38.00000 12632
38.02000 13559
38.04000 13818
38.06000 13612
38.08000 12542
38.10000 11497
38.12000 10024
38.14000 8528
38.16000 7170
38.18000 5791
38.20000 4626
38.22000 3729
38.24000 3033
38.26000 2587
38.28000 2300
38.30000 2118
38.32000 1994
38.34000 1884
38.36000 1760
38.38000 1828
38.40000 1820
38.42000 1726
38.44000 1724
38.46000 1646
38.48000 1717
38.50000 1669
38.52000 1717
38.54000 1733
38.56000 1661
38.58000 1679
38.60000 1624
38.62000 1700
38.64000 1672
38.66000 1601
38.68000 1620
38.70000 1556
38.72000 1613
38.74000 1626
38.76000 1625
38.78000 1512
38.80000 1518
38.82000 1579
38.84000 1685
38.86000 1606
38.88000 1576
38.90000 1633
38.92000 1640
38.94000 1614
38.96000 1571
38.98000 1586
39.00000 1625
39.02000 1535
39.04000 1571
39.06000 1572
39.08000 1580
39.10000 1583
39.12000 1616
39.14000 1598
39.16000 1576
39.18000 1622
