# 2theta_deg counts; perturbed synthetic powder XRD
10.00000 7440
10.02000 8678
10.04000 10032
10.06000 11233
10.08000 12200
10.10000 12352
10.12000 12045
10.14000 10994
10.16000 10071
10.18000 8884
10.20000 8149
10.22000 7503
10.24000 6798
10.26000 6706
10.28000 6615
10.30000 6452
10.32000 6393
10.34000 6357
10.36000 6221
10.38000 6255
10.40000 6284
10.42000 6292
10.44000 6317
10.46000 6280
10.48000 6190
10.50000 6184
10.52000 6136
10.54000 6217
10.56000 6263
10.58000 6184
10.60000 6175
10.62000 6181
10.64000 6301
10.66000 6178
10.68000 6165
10.70000 6221
10.72000 6119
10.74000 6147
10.76000 6040
10.78000 6064
10.80000 6040
10.82000 5942
10.84000 6077
10.86000 6051
10.88000 6072
10.90000 6004
10.92000 6053
10.94000 6102
10.96000 5996
10.98000 6034
11.00000 5988
11.02000 6167
11.04000 5993
11.06000 6045
11.08000 6064
11.10000 6012
11.12000 5888
11.14000 5928
11.16000 5997
11.18000 6038
11.20000 6042
11.22000 6048
11.24000 5919
11.26000 6021
11.28000 5885
11.30000 6088
11.32000 6006
11.34000 5996
11.36000 5935
11.38000 6072
11.40000 6004
11.42000 6000
11.44000 6027
11.46000 5906
11.48000 6063
11.50000 5879
11.52000 5832
11.54000 5892
11.56000 5964
11.58000 5876
11.60000 5948
11.62000 6064
11.64000 5900
11.66000 5882
11.68000 5944
11.70000 5997
11.72000 5859
11.74000 5993
11.76000 6139
11.78000 5889
11.80000 6042
11.82000 6088
11.84000 5934
11.86000 6110
11.88000 6098
11.90000 6146
11.92000 6032
11.94000 6057
11.96000 6124
11.98000 6240
12.00000 6397
12.02000 6444
12.04000 6533
12.06000 6558
12.08000 6909
12.10000 7639
12.12000 8525
12.14000 10179
12.16000 12682
12.18000 16191
12.20000 20729
12.22000 26102
12.24000 31468
12.26000 34789
12.28000 36291
12.30000 35767
12.32000 32268
12.34000 27340
12.36000 22207
12.38000 16976
12.40000 13253
12.42000 10549
12.44000 8793
12.46000 7674
12.48000 7137
12.50000 6632
12.52000 6521
12.54000 6398
12.56000 6258
12.58000 6174
12.60000 6002
12.62000 6041
12.64000 5983
12.66000 5948
12.68000 5927
12.70000 5904
12.72000 5818
12.74000 5773
12.76000 5749
12.78000 5800
12.80000 5756
12.82000 5692
12.84000 5693
12.86000 5660
12.88000 5670
12.90000 5610
12.92000 5811
12.94000 5684
12.96000 5705
12.98000 5674
13.00000 5720
13.02000 5750
13.04000 5658
13.06000 5543
13.08000 5568
13.10000 5560
13.12000 5581
13.14000 5743
13.16000 5512
13.18000 5574
13.20000 5623
13.22000 5491
13.24000 5531
13.26000 5621
13.28000 5490
13.30000 5422
13.32000 5508
13.34000 5511
13.36000 5645
13.38000 5520
13.40000 5633
13.42000 5574
13.44000 5661
13.46000 5564
13.48000 5610
13.50000 5566
13.52000 5516
13.54000 5584
13.56000 5598
13.58000 5508
13.60000 5561
13.62000 5626
13.64000 5525
13.66000 5739
13.68000 5638
13.70000 5544
13.72000 5526
13.74000 5754
13.76000 5758
13.78000 5718
13.80000 6039
13.82000 5899
13.84000 6137
13.86000 6225
13.88000 6690
13.90000 7196
13.92000 7928
13.94000 8847
13.96000 9530
13.98000 10025
14.00000 10366
14.02000 10249
14.04000 9983
14.06000 9444
14.08000 9397
14.10000 9496
14.12000 10464
14.14000 12066
14.16000 15618
14.18000 20189
14.20000 26507
14.22000 33009
14.24000 39844
14.26000 44601
14.28000 46544
14.30000 44489
14.32000 39836
14.34000 33710
14.36000 27000
14.38000 20576
14.40000 15429
14.42000 11761
14.44000 9482
14.46000 8131
14.48000 7187
14.50000 6777
14.52000 6515
14.54000 6283
14.56000 6177
14.58000 6142
14.60000 5999
14.62000 5885
14.64000 5934
14.66000 5943
14.68000 5828
14.70000 5978
14.72000 6112
14.74000 6083
14.76000 6240
14.78000 6592
14.80000 7072
14.82000 8078
14.84000 9800
14.86000 11660
14.88000 14846
14.90000 18605
14.92000 22571
14.94000 25936
14.96000 28121
14.98000 28675
15.00000 27343
15.02000 24195
15.04000 20314
15.06000 16433
15.08000 12859
15.10000 10202
15.12000 8390
15.14000 7251
15.16000 6559
15.18000 6153
15.20000 5822
15.22000 5679
15.24000 5431
15.26000 5475
15.28000 5366
15.30000 5482
15.32000 5311
15.34000 5431
15.36000 5245
15.38000 5195
15.40000 5097
15.42000 5136
15.44000 5205
15.46000 5212
15.48000 5128
15.50000 5183
15.52000 5118
15.54000 5002
15.56000 5050
15.58000 5053
15.60000 5193
15.62000 5037
15.64000 5086
15.66000 4946
15.68000 5136
15.70000 5035
15.72000 4990
15.74000 5017
15.76000 4938
15.78000 4959
15.80000 4942
15.82000 5008
15.84000 4960
15.86000 4973
15.88000 4985
15.90000 4808
15.92000 4959
15.94000 4852
15.96000 5005
15.98000 4791
16.00000 4841
16.02000 5011
16.04000 4918
16.06000 4837
16.08000 4906
16.10000 4836
16.12000 4860
16.14000 4755
16.16000 4928
16.18000 4918
16.20000 4739
16.22000 4852
16.24000 4871
16.26000 4761
16.28000 4839
16.30000 4791
16.32000 4892
16.34000 4749
16.36000 4878
16.38000 4890
16.40000 4771
16.42000 4799
16.44000 4901
16.46000 4888
16.48000 4774
16.50000 4891
16.52000 4819
16.54000 4786
16.56000 4792
16.58000 4730
16.60000 4849
16.62000 4670
16.64000 4897
16.66000 4737
16.68000 4826
16.70000 4806
16.72000 4853
16.74000 4834
16.76000 4750
16.78000 4701
16.80000 4796
16.82000 5025
16.84000 4880
16.86000 4933
16.88000 4904
16.90000 4799
16.92000 4890
16.94000 4996
16.96000 5090
16.98000 4988
17.00000 5146
17.02000 5214
17.04000 5261
17.06000 5428
17.08000 5628
17.10000 5886
17.12000 6796
17.14000 7741
17.16000 9558
17.18000 12152
17.20000 15439
17.22000 19252
17.24000 22734
17.26000 25223
17.28000 26714
17.30000 26402
17.32000 24482
17.34000 21186
17.36000 17370
17.38000 14138
17.40000 11058
17.42000 8810
17.44000 7365
17.46000 6343
17.48000 5859
17.50000 5514
17.52000 5233
17.54000 5003
17.56000 4956
17.58000 4899
17.60000 4830
17.62000 4830
17.64000 4632
17.66000 4695
17.68000 4730
17.70000 4748
17.72000 4601
17.74000 4607
17.76000 4593
17.78000 4533
17.80000 4585
17.82000 4595
17.84000 4474
17.86000 4540
17.88000 4443
17.90000 4489
17.92000 4440
17.94000 4520
17.96000 4524
17.98000 4528
18.00000 4654
18.02000 4445
18.04000 4458
18.06000 4448
18.08000 4417
18.10000 4528
18.12000 4560
18.14000 4470
18.16000 4361
18.18000 4400
18.20000 4335
18.22000 4414
18.24000 4451
18.26000 4457
18.28000 4404
18.30000 4363
18.32000 4406
18.34000 4573
18.36000 4340
18.38000 4432
18.40000 4387
18.42000 4439
18.44000 4463
18.46000 4295
18.48000 4282
18.50000 4456
18.52000 4339
18.54000 4336
18.56000 4351
18.58000 4496
18.60000 4517
18.62000 4287
18.64000 4416
18.66000 4409
18.68000 4335
18.70000 4360
18.72000 4343
18.74000 4333
18.76000 4286
18.78000 4301
18.80000 4351
18.82000 4337
18.84000 4299
18.86000 4358
18.88000 4280
18.90000 4216
18.92000 4317
18.94000 4413
18.96000 4375
18.98000 4243
19.00000 4290
19.02000 4311
19.04000 4311
19.06000 4352
19.08000 4164
19.10000 4145
19.12000 4317
19.14000 4311
19.16000 4382
19.18000 4310
19.20000 4348
19.22000 4363
19.24000 4385
19.26000 4341
19.28000 4321
19.30000 4286
19.32000 4261
19.34000 4291
19.36000 4387
19.38000 4406
19.40000 4478
19.42000 4324
19.44000 4463
19.46000 4471
19.48000 4455
19.50000 4483
19.52000 4335
19.54000 4546
19.56000 4603
19.58000 4717
19.60000 4557
19.62000 4781
19.64000 4750
19.66000 4756
19.68000 4863
19.70000 4998
19.72000 5103
19.74000 5202
19.76000 5376
19.78000 5641
19.80000 6042
19.82000 6495
19.84000 6955
19.86000 8422
19.88000 10446
19.90000 13880
19.92000 19207
19.94000 26487
19.96000 35083
19.98000 45102
20.00000 53480
20.02000 59879
20.04000 62263
20.06000 60363
20.08000 55390
20.10000 48386
20.12000 42012
20.14000 36845
20.16000 34515
20.18000 34718
20.20000 35181
20.22000 35921
20.24000 35770
20.26000 33411
20.28000 29480
20.30000 25018
20.32000 20167
20.34000 15728
20.36000 12174
20.38000 9439
20.40000 7683
20.42000 6666
20.44000 5921
20.46000 5397
20.48000 5285
20.50000 5031
20.52000 4818
20.54000 4758
20.56000 4736
20.58000 4663
20.60000 4487
20.62000 4426
20.64000 4312
20.66000 4422
20.68000 4235
20.70000 4233
20.72000 4203
20.74000 4238
20.76000 4330
20.78000 4158
20.80000 4226
20.82000 4038
20.84000 4106
20.86000 4042
20.88000 4005
20.90000 4053
20.92000 3994
20.94000 3976
20.96000 4026
20.98000 3902
21.00000 3926
21.02000 4036
21.04000 4034
21.06000 3869
21.08000 3890
21.10000 4042
21.12000 3813
21.14000 3957
21.16000 3972
21.18000 4011
21.20000 3851
21.22000 3988
21.24000 3932
21.26000 3976
21.28000 4006
21.30000 4154
21.32000 4195
21.34000 4332
21.36000 4519
21.38000 4786
21.40000 4762
21.42000 5019
21.44000 5043
21.46000 4737
21.48000 4829
21.50000 4491
21.52000 4394
21.54000 4204
21.56000 4088
21.58000 3827
21.60000 3873
21.62000 3812
21.64000 3787
21.66000 3764
21.68000 3840
21.70000 3748
21.72000 3780
21.74000 3770
21.76000 3699
21.78000 3814
21.80000 3746
21.82000 3816
21.84000 3632
21.86000 3728
21.88000 3639
21.90000 3671
21.92000 3698
21.94000 3642
21.96000 3736
21.98000 3703
22.00000 3661
22.02000 3670
22.04000 3675
22.06000 3574
22.08000 3618
22.10000 3694
22.12000 3657
22.14000 3648
22.16000 3581
22.18000 3706
22.20000 3563
22.22000 3663
22.24000 3566
22.26000 3627
22.28000 3581
22.30000 3589
22.32000 3570
22.34000 3705
22.36000 3619
22.38000 3535
22.40000 3695
22.42000 3614
22.44000 3640
22.46000 3625
22.48000 3655
22.50000 3695
22.52000 3728
22.54000 3882
22.56000 3902
22.58000 4008
22.60000 4230
22.62000 4506
22.64000 4497
22.66000 4510
22.68000 4500
22.70000 4373
22.72000 4250
22.74000 4113
22.76000 3809
22.78000 3790
22.80000 3709
22.82000 3652
22.84000 3689
22.86000 3624
22.88000 3506
22.90000 3575
22.92000 3588
22.94000 3657
22.96000 3511
22.98000 3539
23.00000 3623
23.02000 3609
23.04000 3672
23.06000 3765
23.08000 3745
23.10000 3699
23.12000 3619
23.14000 3748
23.16000 3746
23.18000 3860
23.20000 3938
23.22000 4108
23.24000 4352
23.26000 4840
23.28000 5401
23.30000 6418
23.32000 7425
23.34000 8226
23.36000 8804
23.38000 9226
23.40000 9264
23.42000 8953
23.44000 8285
23.46000 7483
23.48000 6882
23.50000 6387
23.52000 5942
23.54000 6114
23.56000 6631
23.58000 7787
23.60000 9986
23.62000 12842
23.64000 17118
23.66000 21908
23.68000 26543
23.70000 30176
23.72000 32545
23.74000 32446
23.76000 30433
23.78000 26616
23.80000 22135
23.82000 17608
23.84000 13771
23.86000 10358
23.88000 8171
23.90000 6485
23.92000 5496
23.94000 4901
23.96000 4516
23.98000 4300
24.00000 4122
24.02000 4072
24.04000 4044
24.06000 3984
24.08000 3945
24.10000 3843
24.12000 3831
24.14000 3908
24.16000 3836
24.18000 4030
24.20000 3795
24.22000 3968
24.24000 4086
24.26000 4010
24.28000 4106
24.30000 4346
24.32000 4499
24.34000 4860
24.36000 5184
24.38000 6180
24.40000 7418
24.42000 9792
24.44000 13203
24.46000 17552
24.48000 22577
24.50000 27999
24.52000 32334
24.54000 35038
24.56000 35505
24.58000 34018
24.60000 30585
24.62000 26556
24.64000 21939
24.66000 18001
24.68000 14188
24.70000 11500
24.72000 9213
24.74000 7678
24.76000 6487
24.78000 5552
24.80000 4947
24.82000 4554
24.84000 4271
24.86000 3903
24.88000 3924
24.90000 3724
24.92000 3561
24.94000 3631
24.96000 3599
24.98000 3390
25.00000 3517
25.02000 3438
25.04000 3312
25.06000 3322
25.08000 3395
25.10000 3261
25.12000 3319
25.14000 3364
25.16000 3232
25.18000 3206
25.20000 3220
25.22000 3206
25.24000 3248
25.26000 3121
25.28000 3249
25.30000 3178
25.32000 3172
25.34000 3186
25.36000 3198
25.38000 3210
25.40000 3143
25.42000 3118
25.44000 3160
25.46000 3097
25.48000 3086
25.50000 3050
25.52000 3124
25.54000 3098
25.56000 3143
25.58000 3108
25.60000 3114
25.62000 3073
25.64000 3130
25.66000 3120
25.68000 3221
25.70000 3039
25.72000 2994
25.74000 3019
25.76000 3000
25.78000 3018
25.80000 3076
25.82000 3095
25.84000 3181
25.86000 3042
25.88000 3033
25.90000 3022
25.92000 3004
25.94000 3071
25.96000 2982
25.98000 3040
26.00000 3035
26.02000 3014
26.04000 3063
26.06000 3047
26.08000 2967
26.10000 3139
26.12000 3081
26.14000 3141
26.16000 3114
26.18000 3195
26.20000 3129
26.22000 3175
26.24000 3019
26.26000 3106
26.28000 3156
26.30000 3218
26.32000 3273
26.34000 3336
26.36000 3321
26.38000 3366
26.40000 3392
26.42000 3445
26.44000 3538
26.46000 3746
26.48000 3967
26.50000 4276
26.52000 4729
26.54000 5481
26.56000 6914
26.58000 9244
26.60000 12236
26.62000 16575
26.64000 21657
26.66000 26970
26.68000 31559
26.70000 34159
26.72000 35112
26.74000 33682
26.76000 30381
26.78000 25734
26.80000 20804
26.82000 16340
26.84000 12196
26.86000 9523
26.88000 7253
26.90000 5749
26.92000 4810
26.94000 4220
26.96000 3891
26.98000 3755
27.00000 3494
27.02000 3424
27.04000 3297
27.06000 3301
27.08000 3307
27.10000 3196
27.12000 3103
27.14000 3053
27.16000 3078
27.18000 2920
27.20000 3065
27.22000 3022
27.24000 2954
27.26000 2966
27.28000 2896
27.30000 2856
27.32000 2804
27.34000 2863
27.36000 2831
27.38000 2809
27.40000 2888
27.42000 2889
27.44000 2846
27.46000 2822
27.48000 2859
27.50000 2836
27.52000 2861
27.54000 2830
27.56000 2787
27.58000 2845
27.60000 2800
27.62000 2707
27.64000 2814
27.66000 2865
27.68000 2824
27.70000 2776
27.72000 2797
27.74000 2819
27.76000 2863
27.78000 2806
27.80000 2775
27.82000 2913
27.84000 2716
27.86000 2807
27.88000 2802
27.90000 2832
27.92000 2889
27.94000 2791
27.96000 2786
27.98000 2850
28.00000 2940
28.02000 2831
28.04000 2974
28.06000 3092
28.08000 3225
28.10000 3205
28.12000 3531
28.14000 3672
28.16000 3864
28.18000 3960
28.20000 3949
28.22000 3866
28.24000 3640
28.26000 3574
28.28000 3413
28.30000 3467
28.32000 3172
28.34000 3258
28.36000 3124
28.38000 3228
28.40000 3224
28.42000 3217
28.44000 3334
28.46000 3418
28.48000 3444
28.50000 3516
28.52000 3796
28.54000 3930
28.56000 4143
28.58000 4531
28.60000 5183
28.62000 5833
28.64000 7183
28.66000 8824
28.68000 11202
28.70000 14112
28.72000 17479
28.74000 21539
28.76000 26539
28.78000 31652
28.80000 36781
28.82000 41434
28.84000 44882
28.86000 46412
28.88000 45029
28.90000 41884
28.92000 37195
28.94000 31432
28.96000 25194
28.98000 19529
29.00000 15226
29.02000 12127
29.04000 9697
29.06000 8213
29.08000 7530
29.10000 7481
29.12000 7699
29.14000 8315
29.16000 10028
29.18000 13093
29.20000 17681
29.22000 25134
29.24000 35702
29.26000 49718
29.28000 65177
29.30000 79867
29.32000 92679
29.34000 99483
29.36000 100189
29.38000 94028
29.40000 83798
29.42000 70282
29.44000 56073
29.46000 42968
29.48000 31488
29.50000 22491
29.52000 16042
29.54000 11618
29.56000 8978
29.58000 7303
29.60000 6241
29.62000 5538
29.64000 4958
29.66000 4690
29.68000 4417
29.70000 4337
29.72000 3988
29.74000 4056
29.76000 3892
29.78000 3661
29.80000 3602
29.82000 3635
29.84000 3558
29.86000 3588
29.88000 3510
29.90000 3738
29.92000 3704
29.94000 3876
29.96000 4039
29.98000 4390
30.00000 5044
30.02000 6138
30.04000 7849
30.06000 10172
30.08000 13367
30.10000 17428
30.12000 21907
30.14000 25482
30.16000 28200
30.18000 29333
30.20000 28597
30.22000 26400
30.24000 22785
30.26000 19257
30.28000 15523
30.30000 12121
30.32000 9301
30.34000 7132
30.36000 5646
30.38000 4577
30.40000 4096
30.42000 3775
30.44000 3614
30.46000 3580
30.48000 3560
30.50000 3662
30.52000 3656
30.54000 3697
30.56000 3523
30.58000 3502
30.60000 3263
30.62000 3112
30.64000 3052
30.66000 2802
30.68000 2844
30.70000 2658
30.72000 2570
30.74000 2602
30.76000 2547
30.78000 2385
30.80000 2514
30.82000 2398
30.84000 2481
30.86000 2433
30.88000 2516
30.90000 2369
30.92000 2455
30.94000 2591
30.96000 2628
30.98000 2639
31.00000 2983
31.02000 3216
31.04000 3437
31.06000 3765
31.08000 3996
31.10000 4011
31.12000 3950
31.14000 3946
31.16000 3789
31.18000 3695
31.20000 3596
31.22000 3805
31.24000 4103
31.26000 4799
31.28000 5588
31.30000 6320
31.32000 7436
31.34000 7959
31.36000 8306
31.38000 8331
31.40000 7845
31.42000 7130
31.44000 6415
31.46000 5532
31.48000 4645
31.50000 3967
31.52000 3473
31.54000 3127
31.56000 2853
31.58000 2786
31.60000 2711
31.62000 2932
31.64000 3025
31.66000 3194
31.68000 3399
31.70000 3433
31.72000 3487
31.74000 3402
31.76000 3307
31.78000 3167
31.80000 2939
31.82000 2828
31.84000 2636
31.86000 2567
31.88000 2455
31.90000 2350
31.92000 2265
31.94000 2344
31.96000 2397
31.98000 2368
32.00000 2567
32.02000 2701
32.04000 2916
32.06000 3212
32.08000 3319
32.10000 3575
32.12000 3717
32.14000 3981
32.16000 4105
32.18000 4325
32.20000 4197
32.22000 4320
32.24000 4147
32.26000 4013
32.28000 3704
32.30000 3453
32.32000 3175
32.34000 2942
32.36000 2672
32.38000 2546
32.40000 2315
32.42000 2270
32.44000 2214
32.46000 2121
32.48000 2087
32.50000 2127
32.52000 2047
32.54000 2050
32.56000 2046
32.58000 1959
32.60000 2102
32.62000 2059
32.64000 2078
32.66000 2059
32.68000 2079
32.70000 2109
32.72000 2048
32.74000 2050
32.76000 2092
32.78000 2190
32.80000 2302
32.82000 2346
32.84000 2580
32.86000 2815
32.88000 3368
32.90000 4096
32.92000 5007
32.94000 6346
32.96000 7580
32.98000 8715
33.00000 9426
33.02000 9646
33.04000 9400
33.06000 8930
33.08000 8088
33.10000 7153
33.12000 5973
33.14000 4965
33.16000 4114
33.18000 3483
33.20000 2853
33.22000 2510
33.24000 2363
33.26000 2121
33.28000 2150
33.30000 2021
33.32000 1961
33.34000 2003
33.36000 1974
33.38000 2029
33.40000 2007
33.42000 2053
33.44000 1949
33.46000 2012
33.48000 1931
33.50000 1998
33.52000 1947
33.54000 2065
33.56000 2167
33.58000 2289
33.60000 2525
33.62000 2741
33.64000 3227
33.66000 3600
33.68000 4035
33.70000 4384
33.72000 4546
33.74000 4593
33.76000 4445
33.78000 4080
33.80000 3824
33.82000 3472
33.84000 3024
33.86000 2751
33.88000 2484
33.90000 2233
33.92000 1992
33.94000 1988
33.96000 1926
33.98000 1797
34.00000 1852
34.02000 1828
34.04000 1779
34.06000 1768
34.08000 1716
34.10000 1715
34.12000 1770
34.14000 1773
34.16000 1801
34.18000 1704
34.20000 1697
34.22000 1792
34.24000 1708
34.26000 1711
34.28000 1730
34.30000 1700
34.32000 1724
34.34000 1694
34.36000 1699
34.38000 1681
34.40000 1612
34.42000 1693
34.44000 1693
34.46000 1727
34.48000 1655
34.50000 1708
34.52000 1681
34.54000 1716
34.56000 1706
34.58000 1697
34.60000 1786
34.62000 1660
34.64000 1647
34.66000 1670
34.68000 1617
34.70000 1660
34.72000 1730
34.74000 1664
34.76000 1733
34.78000 1772
34.80000 1773
34.82000 1887
34.84000 1829
34.86000 1911
34.88000 1886
34.90000 2026
34.92000 1978
34.94000 1984
34.96000 1936
34.98000 1869
35.00000 1905
35.02000 1916
35.04000 1955
35.06000 2011
35.08000 2033
35.10000 2111
35.12000 2467
35.14000 2631
35.16000 3228
35.18000 3855
35.20000 4883
35.22000 5946
35.24000 6880
35.26000 7480
35.28000 7729
35.30000 7551
35.32000 7329
35.34000 6711
35.36000 5953
35.38000 5203
35.40000 4399
35.42000 3644
35.44000 3076
35.46000 2652
35.48000 2336
35.50000 2089
35.52000 1897
35.54000 1865
35.56000 1729
35.58000 1697
35.60000 1649
35.62000 1717
35.64000 1673
35.66000 1630
35.68000 1598
35.70000 1575
35.72000 1595
35.74000 1671
35.76000 1528
35.78000 1644
35.80000 1612
35.82000 1664
35.84000 1627
35.86000 1575
35.88000 1638
35.90000 1660
35.92000 1693
35.94000 1656
35.96000 1603
35.98000 1615
36.00000 1631
36.02000 1660
36.04000 1673
36.06000 1658
36.08000 1706
36.10000 1740
36.12000 1720
36.14000 1756
36.16000 1827
36.18000 1889
36.20000 1985
36.22000 1972
36.24000 2242
36.26000 2451
36.28000 2999
36.30000 3729
36.32000 4768
36.34000 6282
36.36000 8007
36.38000 9967
36.40000 11666
36.42000 12932
36.44000 13237
36.46000 12943
36.48000 12142
36.50000 10911
36.52000 9382
36.54000 8116
36.56000 6809
36.58000 5513
36.60000 4479
36.62000 3489
36.64000 2858
36.66000 2459
36.68000 2286
36.70000 2201
36.72000 2021
36.74000 2052
36.76000 2109
36.78000 2199
36.80000 2533
36.82000 2827
36.84000 3117
36.86000 3498
36.88000 3802
36.90000 3893
36.92000 3858
36.94000 3757
36.96000 3546
36.98000 3343
37.00000 3077
37.02000 2800
37.04000 2591
37.06000 2261
37.08000 2198
37.10000 2090
37.12000 1983
37.14000 2096
37.16000 2122
37.18000 2144
37.20000 2424
37.22000 2805
37.24000 3358
37.26000 4534
37.28000 5783
37.30000 7323
37.32000 8658
37.34000 9961
37.36000 10745
37.38000 10798
37.40000 10320
37.42000 9680
37.44000 9106
37.46000 8052
37.48000 7228
37.50000 6608
37.52000 5980
37.54000 5397
37.56000 5279
37.58000 5177
37.60000 4786
37.62000 4642
37.64000 4211
37.66000 4007
37.68000 3567
37.70000 3162
37.72000 2859
37.74000 2509
37.76000 2161
37.78000 2036
37.80000 1783
37.82000 1748
37.84000 1498
37.86000 1516
37.88000 1508
37.90000 1436
37.92000 1455
37.94000 1432
37.96000 1516
37.98000 1472
38.00000 1467
38.02000 1554
38.04000 1557
38.06000 1578
38.08000 1843
38.10000 2118
38.12000 2451
38.14000 3015
38.16000 3245
38.18000 3828
38.20000 4322
