# 2theta_deg counts; perturbed synthetic powder XRD
10.00000 3813
10.02000 4403
10.04000 4963
10.06000 5371
10.08000 5924
10.10000 6482
10.12000 7089
10.14000 7672
10.16000 8662
10.18000 9733
10.20000 10631
10.22000 11757
10.24000 11809
10.26000 12072
10.28000 11400
10.30000 10232
10.32000 8594
10.34000 7244
10.36000 6014
10.38000 4913
10.40000 4208
10.42000 3648
10.44000 3232
10.46000 3055
10.48000 2878
10.50000 2776
10.52000 2852
10.54000 2771
10.56000 2784
10.58000 2637
10.60000 2639
10.62000 2683
10.64000 2616
10.66000 2666
10.68000 2646
10.70000 2642
10.72000 2622
10.74000 2716
10.76000 2686
10.78000 2673
10.80000 2714
10.82000 2623
10.84000 2699
10.86000 2527
10.88000 2593
10.90000 2583
10.92000 2646
10.94000 2590
10.96000 2555
10.98000 2534
11.00000 2649
11.02000 2600
11.04000 2572
11.06000 2662
11.08000 2564
11.10000 2553
11.12000 2676
11.14000 2597
11.16000 2558
11.18000 2539
11.20000 2645
11.22000 2663
11.24000 2600
11.26000 2579
11.28000 2503
11.30000 2566
11.32000 2578
11.34000 2637
11.36000 2640
11.38000 2567
11.40000 2648
11.42000 2538
11.44000 2668
11.46000 2566
11.48000 2631
11.50000 2631
11.52000 2620
11.54000 2641
11.56000 2578
11.58000 2629
11.60000 2522
11.62000 2633
11.64000 2631
11.66000 2587
11.68000 2588
11.70000 2573
11.72000 2587
11.74000 2546
11.76000 2538
11.78000 2597
11.80000 2604
11.82000 2575
11.84000 2580
11.86000 2573
11.88000 2521
11.90000 2651
11.92000 2590
11.94000 2498
11.96000 2569
11.98000 2558
12.00000 2617
12.02000 2616
12.04000 2616
12.06000 2534
12.08000 2608
12.10000 2529
12.12000 2703
12.14000 2529
12.16000 2538
12.18000 2553
12.20000 2507
12.22000 2640
12.24000 2683
12.26000 2681
12.28000 2646
12.30000 2662
12.32000 2563
12.34000 2617
12.36000 2645
12.38000 2604
12.40000 2608
12.42000 2637
12.44000 2632
12.46000 2651
12.48000 2613
12.50000 2669
12.52000 2645
12.54000 2762
12.56000 2796
12.58000 2937
12.60000 2959
12.62000 3107
12.64000 3338
12.66000 3472
12.68000 3792
12.70000 3805
12.72000 4144
12.74000 4208
12.76000 4114
12.78000 4006
12.80000 3924
12.82000 3702
12.84000 3696
12.86000 3785
12.88000 3964
12.90000 4443
12.92000 5336
12.94000 6502
12.96000 7805
12.98000 9335
13.00000 10794
13.02000 12151
13.04000 12953
13.06000 13800
13.08000 13926
13.10000 13932
13.12000 13448
13.14000 12918
13.16000 11701
13.18000 10780
13.20000 9500
13.22000 8262
13.24000 6860
13.26000 5913
13.28000 4947
13.30000 4126
13.32000 3724
13.34000 3423
13.36000 3287
13.38000 3142
13.40000 3098
13.42000 2979
13.44000 3033
13.46000 3159
13.48000 3123
13.50000 3264
13.52000 3490
13.54000 3869
13.56000 4448
13.58000 5272
13.60000 6549
13.62000 8411
13.64000 10910
13.66000 13419
13.68000 16051
13.70000 18102
13.72000 19423
13.74000 19661
13.76000 18295
13.78000 16401
13.80000 13838
13.82000 11139
13.84000 8712
13.86000 6833
13.88000 5291
13.90000 4312
13.92000 3780
13.94000 3367
13.96000 3170
13.98000 3086
14.00000 2816
14.02000 2879
14.04000 2805
14.06000 2818
14.08000 2731
14.10000 2737
14.12000 2700
14.14000 2810
14.16000 2691
14.18000 2626
14.20000 2719
14.22000 2693
14.24000 2608
14.26000 2567
14.28000 2713
14.30000 2619
14.32000 2553
14.34000 2634
14.36000 2559
14.38000 2571
14.40000 2585
14.42000 2581
14.44000 2677
14.46000 2699
14.48000 2576
14.50000 2592
14.52000 2516
14.54000 2552
14.56000 2522
14.58000 2625
14.60000 2584
14.62000 2617
14.64000 2532
14.66000 2569
14.68000 2466
14.70000 2570
14.72000 2555
14.74000 2593
14.76000 2522
14.78000 2525
14.80000 2482
14.82000 2559
14.84000 2536
14.86000 2588
14.88000 2612
14.90000 2514
14.92000 2636
14.94000 2512
14.96000 2470
14.98000 2473
15.00000 2534
15.02000 2551
15.04000 2587
15.06000 2577
15.08000 2559
15.10000 2521
15.12000 2557
15.14000 2533
15.16000 2540
15.18000 2500
15.20000 2564
15.22000 2501
15.24000 2565
15.26000 2554
15.28000 2530
15.30000 2522
15.32000 2556
15.34000 2444
15.36000 2494
15.38000 2605
15.40000 2681
15.42000 2583
15.44000 2601
15.46000 2615
15.48000 2657
15.50000 2729
15.52000 2972
15.54000 2888
15.56000 2945
15.58000 3004
15.60000 2990
15.62000 3041
15.64000 3019
15.66000 3022
15.68000 2957
15.70000 2953
15.72000 3078
15.74000 2913
15.76000 2936
15.78000 2935
15.80000 2826
15.82000 2747
15.84000 2728
15.86000 2725
15.88000 2676
15.90000 2595
15.92000 2716
15.94000 2557
15.96000 2713
15.98000 2730
16.00000 2763
16.02000 2788
16.04000 2967
16.06000 3074
16.08000 3241
16.10000 3366
16.12000 3234
16.14000 3173
16.16000 3155
16.18000 2989
16.20000 3003
16.22000 2910
16.24000 2862
16.26000 2843
16.28000 2743
16.30000 2683
16.32000 2615
16.34000 2648
16.36000 2640
16.38000 2639
16.40000 2579
16.42000 2527
16.44000 2516
16.46000 2598
16.48000 2776
16.50000 2907
16.52000 2742
16.54000 2936
16.56000 2951
16.58000 2910
16.60000 2893
16.62000 2759
16.64000 2717
16.66000 2740
16.68000 2780
16.70000 2577
16.72000 2611
16.74000 2527
16.76000 2455
16.78000 2534
16.80000 2490
16.82000 2505
16.84000 2560
16.86000 2526
16.88000 2569
16.90000 2558
16.92000 2578
16.94000 2553
16.96000 2529
16.98000 2537
17.00000 2531
17.02000 2480
17.04000 2593
17.06000 2569
17.08000 2581
17.10000 2525
17.12000 2499
17.14000 2556
17.16000 2589
17.18000 2574
17.20000 2632
17.22000 2690
17.24000 2736
17.26000 2783
17.28000 2818
17.30000 3040
17.32000 3036
17.34000 2985
17.36000 2901
17.38000 2822
17.40000 2769
17.42000 2855
17.44000 2841
17.46000 2878
17.48000 2959
17.50000 3028
17.52000 3037
17.54000 3054
17.56000 3035
17.58000 2983
17.60000 3022
17.62000 2940
17.64000 2689
17.66000 2701
17.68000 2642
17.70000 2518
17.72000 2524
17.74000 2621
17.76000 2519
17.78000 2480
17.80000 2499
17.82000 2488
17.84000 2448
17.86000 2482
17.88000 2459
17.90000 2444
17.92000 2492
17.94000 2465
17.96000 2462
17.98000 2497
18.00000 2502
18.02000 2474
18.04000 2465
18.06000 2472
18.08000 2518
18.10000 2475
18.12000 2470
18.14000 2535
18.16000 2493
18.18000 2488
18.20000 2551
18.22000 2525
18.24000 2430
18.26000 2501
18.28000 2487
18.30000 2522
18.32000 2420
18.34000 2511
18.36000 2478
18.38000 2501
18.40000 2455
18.42000 2474
18.44000 2465
18.46000 2574
18.48000 2525
18.50000 2433
18.52000 2528
18.54000 2541
18.56000 2545
18.58000 2426
18.60000 2479
18.62000 2548
18.64000 2528
18.66000 2464
18.68000 2482
18.70000 2539
18.72000 2509
18.74000 2569
18.76000 2508
18.78000 2545
18.80000 2574
18.82000 2690
18.84000 2748
18.86000 2900
18.88000 2958
18.90000 3230
18.92000 3637
18.94000 4045
18.96000 4659
18.98000 5184
19.00000 5806
19.02000 5957
19.04000 6071
19.06000 6046
19.08000 5686
19.10000 5281
19.12000 4833
19.14000 4444
19.16000 4176
19.18000 4334
19.20000 4305
19.22000 4713
19.24000 5008
19.26000 5430
19.28000 5599
19.30000 5551
19.32000 5474
19.34000 5270
19.36000 4710
19.38000 4259
19.40000 3779
19.42000 3421
19.44000 3184
19.46000 3075
19.48000 2951
19.50000 3138
19.52000 3105
19.54000 3359
19.56000 3682
19.58000 3959
19.60000 4078
19.62000 4335
19.64000 4383
19.66000 4282
19.68000 4191
19.70000 3838
19.72000 3599
19.74000 3288
19.76000 3006
19.78000 2837
19.80000 2820
19.82000 2714
19.84000 2717
19.86000 2467
19.88000 2571
19.90000 2511
19.92000 2562
19.94000 2418
19.96000 2502
19.98000 2490
20.00000 2469
20.02000 2541
20.04000 2518
20.06000 2540
20.08000 2527
20.10000 2511
20.12000 2531
20.14000 2552
20.16000 2511
20.18000 2564
20.20000 2558
20.22000 2635
20.24000 2601
20.26000 2727
20.28000 2662
20.30000 2900
20.32000 2989
20.34000 2978
20.36000 2973
20.38000 3061
20.40000 3144
20.42000 3410
20.44000 3374
20.46000 3606
20.48000 3647
20.50000 3598
20.52000 3675
20.54000 3687
20.56000 3767
20.58000 4040
20.60000 4384
20.62000 4728
20.64000 4973
20.66000 5311
20.68000 5653
20.70000 5752
20.72000 5873
20.74000 5623
20.76000 5600
20.78000 5581
20.80000 5469
20.82000 5319
20.84000 5514
20.86000 5406
20.88000 5341
20.90000 5043
20.92000 4685
20.94000 4377
20.96000 3974
20.98000 3585
21.00000 3305
21.02000 3104
21.04000 2889
21.06000 2723
21.08000 2667
21.10000 2635
21.12000 2571
21.14000 2538
21.16000 2603
21.18000 2587
21.20000 2516
21.22000 2571
21.24000 2561
21.26000 2620
21.28000 2588
21.30000 2620
21.32000 2645
21.34000 2794
21.36000 2947
21.38000 3239
21.40000 3414
21.42000 3597
21.44000 3987
21.46000 4218
21.48000 4472
21.50000 4557
21.52000 4721
21.54000 4859
21.56000 4723
21.58000 4597
21.60000 4218
21.62000 3985
21.64000 3501
21.66000 3389
21.68000 3137
21.70000 2954
21.72000 2727
21.74000 2655
21.76000 2567
21.78000 2477
21.80000 2493
21.82000 2618
21.84000 2544
21.86000 2554
21.88000 2493
21.90000 2480
21.92000 2361
21.94000 2421
21.96000 2454
21.98000 2377
22.00000 2413
22.02000 2409
22.04000 2447
22.06000 2457
22.08000 2450
22.10000 2422
22.12000 2605
22.14000 2554
22.16000 2483
22.18000 2642
22.20000 2694
22.22000 2810
22.24000 2855
22.26000 2883
22.28000 2837
22.30000 2794
22.32000 2788
22.34000 2716
22.36000 2682
22.38000 2804
22.40000 2611
22.42000 2644
22.44000 2604
22.46000 2582
22.48000 2493
22.50000 2516
22.52000 2614
22.54000 2549
22.56000 2474
22.58000 2572
22.60000 2447
22.62000 2448
22.64000 2334
22.66000 2459
22.68000 2416
22.70000 2426
22.72000 2432
22.74000 2367
22.76000 2399
22.78000 2442
22.80000 2407
22.82000 2359
22.84000 2417
22.86000 2432
22.88000 2410
22.90000 2437
22.92000 2467
22.94000 2406
22.96000 2439
22.98000 2466
23.00000 2459
23.02000 2396
23.04000 2436
23.06000 2393
23.08000 2357
23.10000 2398
23.12000 2387
23.14000 2416
23.16000 2459
23.18000 2367
23.20000 2419
23.22000 2407
23.24000 2436
23.26000 2540
23.28000 2361
23.30000 2340
23.32000 2408
23.34000 2353
23.36000 2411
23.38000 2368
23.40000 2451
23.42000 2393
23.44000 2513
23.46000 2401
23.48000 2563
23.50000 2358
23.52000 2405
23.54000 2420
23.56000 2409
23.58000 2413
23.60000 2491
23.62000 2443
23.64000 2428
23.66000 2557
23.68000 2544
23.70000 2747
23.72000 2811
23.74000 3056
23.76000 3332
23.78000 3852
23.80000 4342
23.82000 4939
23.84000 5407
23.86000 6102
23.88000 6281
23.90000 6352
23.92000 6208
23.94000 5976
23.96000 5587
23.98000 5008
24.00000 4659
24.02000 4283
24.04000 3948
24.06000 3619
24.08000 3411
24.10000 3253
24.12000 2997
24.14000 2789
24.16000 2747
24.18000 2723
24.20000 2545
24.22000 2585
24.24000 2521
24.26000 2577
24.28000 2495
24.30000 2465
24.32000 2465
24.34000 2435
24.36000 2385
24.38000 2356
24.40000 2427
24.42000 2453
24.44000 2397
24.46000 2459
24.48000 2401
24.50000 2270
24.52000 2466
24.54000 2373
24.56000 2523
24.58000 2346
24.60000 2418
24.62000 2416
24.64000 2427
24.66000 2476
24.68000 2412
24.70000 2421
24.72000 2422
24.74000 2404
24.76000 2433
24.78000 2498
24.80000 2489
24.82000 2538
24.84000 2626
24.86000 2564
24.88000 2793
24.90000 3124
24.92000 3338
24.94000 3784
24.96000 4374
24.98000 4960
25.00000 5348
25.02000 6031
25.04000 6338
25.06000 6468
25.08000 6007
25.10000 5714
25.12000 5442
25.14000 4627
25.16000 4002
25.18000 3703
25.20000 3382
25.22000 3003
25.24000 2839
25.26000 2839
25.28000 2856
25.30000 2722
25.32000 2822
25.34000 2888
25.36000 3004
25.38000 3130
25.40000 3102
25.42000 3057
25.44000 2987
25.46000 2925
25.48000 2807
25.50000 2775
25.52000 2582
25.54000 2567
25.56000 2506
25.58000 2507
25.60000 2502
25.62000 2497
25.64000 2585
25.66000 2576
25.68000 2567
25.70000 2593
25.72000 2632
25.74000 2637
25.76000 2724
25.78000 2728
25.80000 2658
25.82000 2722
25.84000 2650
25.86000 2722
25.88000 2675
25.90000 2598
25.92000 2578
25.94000 2615
25.96000 2514
25.98000 2519
26.00000 2544
26.02000 2505
26.04000 2489
26.06000 2539
26.08000 2612
26.10000 2614
26.12000 2614
26.14000 2696
26.16000 2707
26.18000 2703
26.20000 2687
26.22000 2658
26.24000 2633
26.26000 2667
26.28000 2710
26.30000 2732
26.32000 2755
26.34000 2845
26.36000 3039
26.38000 3062
26.40000 3037
26.42000 3201
26.44000 3186
26.46000 3047
26.48000 3021
26.50000 2974
26.52000 3027
26.54000 3155
26.56000 3290
26.58000 3439
26.60000 3854
26.62000 4253
26.64000 4649
26.66000 4870
26.68000 5154
26.70000 5093
26.72000 5159
26.74000 4954
26.76000 4778
26.78000 4515
26.80000 4308
26.82000 4461
26.84000 4687
26.86000 5066
26.88000 5798
26.90000 6697
26.92000 7415
26.94000 7937
26.96000 8334
26.98000 8411
27.00000 8283
27.02000 7784
27.04000 7113
27.06000 6292
27.08000 5879
27.10000 5089
27.12000 4694
27.14000 4495
27.16000 4305
27.18000 4562
27.20000 4543
27.22000 4993
27.24000 5306
27.26000 5621
27.28000 5666
27.30000 5880
27.32000 5424
27.34000 5232
27.36000 4847
27.38000 4360
27.40000 3815
27.42000 3473
27.44000 3199
27.46000 2886
27.48000 2759
27.50000 2548
27.52000 2586
27.54000 2486
27.56000 2402
27.58000 2542
27.60000 2554
27.62000 2462
27.64000 2394
27.66000 2444
27.68000 2630
27.70000 2618
27.72000 2524
27.74000 2747
27.76000 2860
27.78000 2928
27.80000 2939
27.82000 3111
27.84000 3219
27.86000 3367
27.88000 3385
27.90000 3372
27.92000 3267
27.94000 3195
27.96000 3148
27.98000 3121
28.00000 2945
28.02000 3202
28.04000 3220
28.06000 3319
28.08000 3773
28.10000 4122
28.12000 4360
28.14000 4588
28.16000 4700
28.18000 4635
28.20000 4452
28.22000 4151
28.24000 3845
28.26000 3493
28.28000 3207
28.30000 3017
28.32000 2700
28.34000 2625
28.36000 2506
28.38000 2494
28.40000 2420
28.42000 2484
28.44000 2439
28.46000 2365
28.48000 2445
28.50000 2535
28.52000 2579
28.54000 2726
28.56000 2639
28.58000 2693
28.60000 2620
28.62000 2671
28.64000 2633
28.66000 2629
28.68000 2538
28.70000 2513
28.72000 2565
28.74000 2474
28.76000 2423
28.78000 2310
28.80000 2453
28.82000 2388
28.84000 2387
28.86000 2427
28.88000 2372
28.90000 2395
28.92000 2415
28.94000 2206
28.96000 2377
28.98000 2311
29.00000 2292
29.02000 2360
29.04000 2455
29.06000 2348
29.08000 2249
29.10000 2417
29.12000 2401
29.14000 2362
29.16000 2439
29.18000 2572
29.20000 2495
29.22000 2635
29.24000 2611
29.26000 2694
29.28000 2822
29.30000 2813
29.32000 2806
29.34000 2868
29.36000 2956
29.38000 2913
29.40000 3003
29.42000 2977
29.44000 3274
29.46000 3430
29.48000 3412
29.50000 3582
29.52000 3616
29.54000 3440
29.56000 3468
29.58000 3249
29.60000 3015
29.62000 2983
29.64000 2833
29.66000 2612
29.68000 2614
29.70000 2549
29.72000 2422
29.74000 2359
29.76000 2361
29.78000 2231
29.80000 2361
29.82000 2261
29.84000 2317
29.86000 2311
29.88000 2314
29.90000 2262
29.92000 2305
29.94000 2250
29.96000 2320
29.98000 2287
30.00000 2372
30.02000 2344
30.04000 2260
30.06000 2294
30.08000 2312
30.10000 2315
30.12000 2351
30.14000 2354
30.16000 2291
30.18000 2379
30.20000 2325
30.22000 2298
30.24000 2357
30.26000 2296
30.28000 2295
30.30000 2432
30.32000 2326
30.34000 2474
30.36000 2471
30.38000 2476
30.40000 2484
30.42000 2539
30.44000 2694
30.46000 2958
30.48000 3145
30.50000 3174
30.52000 3345
30.54000 3533
30.56000 3629
30.58000 3709
30.60000 3992
30.62000 4267
30.64000 4614
30.66000 4981
30.68000 5536
30.70000 5865
30.72000 6187
30.74000 6228
30.76000 6191
30.78000 6008
30.80000 5613
30.82000 5143
30.84000 4667
30.86000 4154
30.88000 3824
30.90000 3398
30.92000 3149
30.94000 3117
30.96000 3101
30.98000 2980
31.00000 3040
31.02000 3168
31.04000 3154
31.06000 3371
31.08000 3660
31.10000 4016
31.12000 4663
31.14000 5490
31.16000 6422
31.18000 7177
31.20000 8314
31.22000 8990
31.24000 9390
31.26000 9571
31.28000 9615
31.30000 9379
31.32000 9092
31.34000 8752
31.36000 8107
31.38000 7555
31.40000 7031
31.42000 6741
31.44000 6177
31.46000 5644
31.48000 5270
31.50000 4948
31.52000 4851
31.54000 4505
31.56000 4558
31.58000 4166
31.60000 3995
31.62000 3678
31.64000 3629
31.66000 3283
31.68000 3215
31.70000 2884
31.72000 2806
31.74000 2724
31.76000 2590
31.78000 2525
31.80000 2517
31.82000 2507
31.84000 2503
31.86000 2532
31.88000 2727
31.90000 2816
31.92000 2993
31.94000 3310
31.96000 3678
31.98000 3958
32.00000 4268
32.02000 4606
32.04000 4716
32.06000 4771
32.08000 4626
32.10000 4504
32.12000 4356
32.14000 3915
32.16000 3739
32.18000 3387
32.20000 3165
32.22000 2926
32.24000 2776
32.26000 2604
32.28000 2659
32.30000 2539
32.32000 2616
32.34000 2617
32.36000 2666
32.38000 2791
32.40000 3029
32.42000 3070
32.44000 3349
32.46000 3602
32.48000 3790
32.50000 4147
32.52000 4249
32.54000 4434
32.56000 4433
32.58000 4543
32.60000 4379
32.62000 4469
32.64000 4370
32.66000 4444
32.68000 4112
32.70000 3777
32.72000 3641
32.74000 3468
32.76000 3065
32.78000 2890
32.80000 2779
32.82000 2648
32.84000 2413
32.86000 2632
32.88000 2481
32.90000 2406
32.92000 2478
32.94000 2305
32.96000 2266
32.98000 2286
33.00000 2342
33.02000 2412
33.04000 2389
33.06000 2395
33.08000 2470
33.10000 2561
33.12000 2656
33.14000 2831
33.16000 2989
33.18000 3300
33.20000 3452
33.22000 3643
33.24000 3601
33.26000 3763
33.28000 3620
33.30000 3457
33.32000 3278
33.34000 3160
33.36000 2967
33.38000 2837
33.40000 2785
33.42000 2788
33.44000 2691
33.46000 2746
33.48000 2791
33.50000 2881
33.52000 2944
33.54000 2983
33.56000 2977
33.58000 2886
33.60000 2888
33.62000 2856
33.64000 2719
33.66000 2701
33.68000 2650
33.70000 2536
33.72000 2533
33.74000 2385
33.76000 2298
33.78000 2234
33.80000 2309
33.82000 2222
33.84000 2327
33.86000 2194
33.88000 2263
33.90000 2264
33.92000 2291
33.94000 2278
33.96000 2230
33.98000 2296
34.00000 2356
34.02000 2337
34.04000 2371
34.06000 2466
34.08000 2491
34.10000 2492
34.12000 2491
34.14000 2592
34.16000 2747
34.18000 2706
34.20000 2923
34.22000 2875
34.24000 2921
34.26000 2965
34.28000 2825
34.30000 2817
34.32000 2693
34.34000 2552
34.36000 2524
34.38000 2482
34.40000 2325
34.42000 2387
34.44000 2329
34.46000 2238
34.48000 2333
34.50000 2274
34.52000 2388
34.54000 2421
34.56000 2466
34.58000 2546
34.60000 2669
34.62000 2713
34.64000 2738
34.66000 2821
34.68000 2775
34.70000 2666
34.72000 2732
34.74000 2563
34.76000 2585
34.78000 2452
34.80000 2336
34.82000 2341
34.84000 2378
34.86000 2333
34.88000 2225
34.90000 2385
34.92000 2321
34.94000 2455
34.96000 2356
34.98000 2412
35.00000 2428
35.02000 2479
35.04000 2554
35.06000 2606
35.08000 2682
35.10000 2728
35.12000 2828
35.14000 2728
35.16000 2725
35.18000 2656
35.20000 2617
35.22000 2564
35.24000 2614
35.26000 2641
35.28000 2676
35.30000 2582
35.32000 2694
35.34000 2773
35.36000 2989
35.38000 3126
35.40000 3063
35.42000 3223
35.44000 3255
35.46000 3226
35.48000 3301
35.50000 3195
35.52000 3137
35.54000 3141
35.56000 3165
35.58000 2966
35.60000 2997
35.62000 2821
35.64000 2791
35.66000 2727
35.68000 2492
35.70000 2555
35.72000 2462
35.74000 2499
35.76000 2371
35.78000 2269
35.80000 2266
35.82000 2263
35.84000 2244
35.86000 2202
35.88000 2296
35.90000 2213
35.92000 2075
35.94000 2252
35.96000 2245
35.98000 2130
36.00000 2205
36.02000 2246
36.04000 2273
36.06000 2259
36.08000 2403
36.10000 2491
36.12000 2572
36.14000 2579
36.16000 2520
36.18000 2582
36.20000 2553
36.22000 2589
36.24000 2515
36.26000 2393
36.28000 2311
36.30000 2234
36.32000 2355
36.34000 2160
36.36000 2195
36.38000 2161
36.40000 2154
36.42000 2107
36.44000 2164
36.46000 2179
36.48000 2127
36.50000 2172
36.52000 2241
36.54000 2182
36.56000 2218
36.58000 2321
36.60000 2271
36.62000 2335
36.64000 2461
36.66000 2411
36.68000 2532
36.70000 2504
36.72000 2576
36.74000 2531
36.76000 2547
36.78000 2474
36.80000 2517
36.82000 2371
36.84000 2334
36.86000 2385
36.88000 2367
36.90000 2329
36.92000 2554
36.94000 2631
36.96000 2776
36.98000 2852
37.00000 2932
37.02000 3033
37.04000 3109
37.06000 3108
37.08000 2985
37.10000 2965
37.12000 2843
37.14000 2776
37.16000 2621
37.18000 2475
37.20000 2393
37.22000 2317
37.24000 2122
37.26000 2222
37.28000 2181
37.30000 2158
37.32000 2176
37.34000 2114
37.36000 2196
37.38000 2182
37.40000 2249
37.42000 2306
37.44000 2206
37.46000 2466
37.48000 2523
37.50000 2699
37.52000 2624
37.54000 2748
37.56000 2796
37.58000 2797
37.60000 2720
37.62000 2648
37.64000 2545
37.66000 2599
37.68000 2471
37.70000 2272
37.72000 2299
37.74000 2286
37.76000 2148
37.78000 2217
37.80000 2238
37.82000 2167
37.84000 2159
37.86000 2239
37.88000 2221
37.90000 2239
37.92000 2326
37.94000 2349
37.96000 2369
37.98000 2551
38.00000 2512
38.02000 2594
38.04000 2643
38.06000 2823
38.08000 2714
38.10000 2760
38.12000 2830
38.14000 2848
38.16000 2830
38.18000 2783
38.20000 2840
38.22000 2975
38.24000 2892
38.26000 2901
38.28000 2976
38.30000 2904
38.32000 2994
38.34000 3008
38.36000 2956
38.38000 2873
38.40000 2900
38.42000 2904
38.44000 2835
